Wavelength nm.	RawData ...
0.000000000000000000e+00	7.201912732023699887e-03
1.000000000000000000e+00	7.266266658598375880e-03
2.000000000000000000e+00	7.331504652766088551e-03
3.000000000000000000e+00	7.397643281450815532e-03
4.000000000000000000e+00	7.464699507680844399e-03
5.000000000000000000e+00	7.532690702159556932e-03
6.000000000000000000e+00	7.601634655236723728e-03
7.000000000000000000e+00	7.671549589296324141e-03
8.000000000000000000e+00	7.742454171577706212e-03
9.000000000000000000e+00	7.814367527447617714e-03
1.000000000000000000e+01	7.887309254141492906e-03
1.100000000000000000e+01	7.961299434993194049e-03
1.200000000000000000e+01	8.036358654173320071e-03
1.300000000000000000e+01	8.112508011957147991e-03
1.400000000000000000e+01	8.189769140544235493e-03
1.500000000000000000e+01	8.268164220452770344e-03
1.600000000000000000e+01	8.347715997512866054e-03
1.700000000000000000e+01	8.428447800484139413e-03
1.800000000000000000e+01	8.510383559324144129e-03
1.900000000000000000e+01	8.593547824135497684e-03
2.000000000000000000e+01	8.677965784820917614e-03
2.100000000000000000e+01	8.763663291476797221e-03
2.200000000000000000e+01	8.850666875557508528e-03
2.300000000000000000e+01	8.939003771844067012e-03
2.400000000000000000e+01	9.028701941252723420e-03
2.500000000000000000e+01	9.119790094520539847e-03
2.600000000000000000e+01	9.212297716807101022e-03
2.700000000000000000e+01	9.306255093253371427e-03
2.800000000000000000e+01	9.401693335540865087e-03
2.900000000000000000e+01	9.498644409496447699e-03
3.000000000000000000e+01	9.597141163790482918e-03
3.100000000000000000e+01	9.697217359778499690e-03
3.200000000000000000e+01	9.798907702539130099e-03
3.300000000000000000e+01	9.902247873163920813e-03
3.400000000000000000e+01	1.000727456235749220e-02
3.500000000000000000e+01	1.011402550540961738e-02
3.600000000000000000e+01	1.022253951860419875e-02
3.700000000000000000e+01	1.033285653713344847e-02
3.800000000000000000e+01	1.044501765458942522e-02
3.900000000000000000e+01	1.055906516410893767e-02
4.000000000000000000e+01	1.067504260125200395e-02
4.100000000000000000e+01	1.079299478869848346e-02
4.200000000000000000e+01	1.091296788285222100e-02
4.300000000000000000e+01	1.103500942244698725e-02
4.400000000000000000e+01	1.115916837925386151e-02
4.500000000000000000e+01	1.128549521099528677e-02
4.600000000000000000e+01	1.141404191657706749e-02
4.700000000000000000e+01	1.154486209375594173e-02
4.800000000000000000e+01	1.167801099936716970e-02
4.900000000000000000e+01	1.181354561224374870e-02
5.000000000000000000e+01	1.195152469896670899e-02
5.100000000000000000e+01	1.209200888259395756e-02
5.200000000000000000e+01	1.223506071452408299e-02
5.300000000000000000e+01	1.238074474966069545e-02
5.400000000000000000e+01	1.252912762505299128e-02
5.500000000000000000e+01	1.268027814219873858e-02
5.600000000000000000e+01	1.283426735320727062e-02
5.700000000000000000e+01	1.299116865103225153e-02
5.800000000000000000e+01	1.315105786399682793e-02
5.900000000000000000e+01	1.331401335484777397e-02
6.000000000000000000e+01	1.348011612458994285e-02
6.100000000000000000e+01	1.364944992136827781e-02
6.200000000000000000e+01	1.382210135468159642e-02
6.300000000000000000e+01	1.399816001523060752e-02
6.400000000000000000e+01	1.417771860072203349e-02
6.500000000000000000e+01	1.436087304797176167e-02
6.600000000000000000e+01	1.454772267167230189e-02
6.700000000000000000e+01	1.473837031021390208e-02
6.800000000000000000e+01	1.493292247897470490e-02
6.900000000000000000e+01	1.513148953152286189e-02
7.000000000000000000e+01	1.533418582920373537e-02
7.100000000000000000e+01	1.554112991961714534e-02
7.200000000000000000e+01	1.575244472452447947e-02
7.300000000000000000e+01	1.596825773776258672e-02
7.400000000000000000e+01	1.618870123378154252e-02
7.500000000000000000e+01	1.641391248746672596e-02
7.600000000000000000e+01	1.664403400595214702e-02
7.700000000000000000e+01	1.687921377318255325e-02
7.800000000000000000e+01	1.711960550803602252e-02
7.900000000000000000e+01	1.736536893687764746e-02
8.000000000000000000e+01	1.761667008147841870e-02
8.100000000000000000e+01	1.787368156330211566e-02
8.200000000000000000e+01	1.813658292523741278e-02
8.300000000000000000e+01	1.840556097193312909e-02
8.400000000000000000e+01	1.868081012998159748e-02
8.500000000000000000e+01	1.896253282929021011e-02
8.600000000000000000e+01	1.925093990708368757e-02
8.700000000000000000e+01	1.954625103609149150e-02
8.800000000000000000e+01	1.984869517859591884e-02
8.900000000000000000e+01	2.015851106814854285e-02
9.000000000000000000e+01	2.047594772090604448e-02
9.100000000000000000e+01	2.080126497869297375e-02
9.200000000000000000e+01	2.113473408606922344e-02
9.300000000000000000e+01	2.147663830386596640e-02
9.400000000000000000e+01	2.182727356185640982e-02
9.500000000000000000e+01	2.218694915344938609e-02
9.600000000000000000e+01	2.255598847553575217e-02
9.700000000000000000e+01	2.293472981688255211e-02
9.800000000000000000e+01	2.332352719875960614e-02
9.900000000000000000e+01	2.372275127180117904e-02
1.000000000000000000e+02	2.413279027345335143e-02
1.010000000000000000e+02	2.455405105074029079e-02
1.020000000000000000e+02	2.498696015350239732e-02
1.030000000000000000e+02	2.543196500372087859e-02
1.040000000000000000e+02	2.588953514705144912e-02
1.050000000000000000e+02	2.636016359324885872e-02
1.060000000000000000e+02	2.684436825278102914e-02
1.070000000000000000e+02	2.734269347761138225e-02
1.080000000000000000e+02	2.785571171487969885e-02
1.090000000000000000e+02	2.838402528304198591e-02
1.100000000000000000e+02	2.892826828094895164e-02
1.110000000000000000e+02	2.948910864136033289e-02
1.120000000000000000e+02	3.006725034152091594e-02
1.130000000000000000e+02	3.066343578467618097e-02
1.140000000000000000e+02	3.127844836779711257e-02
1.150000000000000000e+02	3.191311525233093971e-02
1.160000000000000000e+02	3.256831035651761713e-02
1.170000000000000000e+02	3.324495758973217141e-02
1.180000000000000000e+02	3.394403435145578601e-02
1.190000000000000000e+02	3.466657531987264035e-02
1.200000000000000000e+02	3.541367655776661572e-02
1.210000000000000000e+02	3.618649996639057564e-02
1.220000000000000000e+02	3.698627812134162168e-02
1.230000000000000000e+02	3.781431952824950565e-02
1.240000000000000000e+02	3.867201434032550150e-02
1.250000000000000000e+02	3.956084058459172909e-02
1.260000000000000000e+02	4.048237094898823191e-02
1.270000000000000000e+02	4.143828018862300011e-02
1.280000000000000000e+02	4.243035321628543799e-02
1.290000000000000000e+02	4.346049395010041783e-02
1.300000000000000000e+02	4.453073499998784490e-02
1.310000000000000000e+02	4.564324828456385597e-02
1.320000000000000000e+02	4.680035668144948147e-02
1.330000000000000000e+02	4.800454682684518470e-02
1.340000000000000000e+02	4.925848319492336785e-02
1.350000000000000000e+02	5.056502360436218591e-02
1.360000000000000000e+02	5.192723631851734606e-02
1.370000000000000000e+02	5.334841892768205085e-02
1.380000000000000000e+02	5.483211922706359570e-02
1.390000000000000000e+02	5.638215833302869656e-02
1.400000000000000000e+02	5.800265631345081357e-02
1.410000000000000000e+02	5.969806064635407861e-02
1.420000000000000000e+02	6.147317786533997713e-02
1.430000000000000000e+02	6.333320880151074861e-02
1.440000000000000000e+02	6.528378789095877488e-02
1.450000000000000000e+02	6.733102708578504736e-02
1.460000000000000000e+02	6.948156498671843873e-02
1.470000000000000000e+02	7.174262190872648937e-02
1.480000000000000000e+02	7.412206169991136795e-02
1.490000000000000000e+02	7.662846126130720692e-02
1.500000000000000000e+02	7.927118886432348022e-02
1.510000000000000000e+02	8.206049253756184103e-02
1.520000000000000000e+02	8.500760000042402453e-02
1.530000000000000000e+02	8.812483186313682659e-02
1.540000000000000000e+02	9.142573009852350552e-02
1.550000000000000000e+02	9.492520412841445876e-02
1.560000000000000000e+02	9.863969726705894281e-02
1.570000000000000000e+02	1.025873767373176315e-01
1.580000000000000000e+02	1.067883510372221179e-01
1.590000000000000000e+02	1.112649191019479400e-01
1.600000000000000000e+02	1.160418564999683294e-01
1.610000000000000000e+02	1.211467448466078956e-01
1.620000000000000000e+02	1.266103517423136926e-01
1.630000000000000000e+02	1.324670698805568425e-01
1.640000000000000000e+02	1.387554255605556175e-01
1.650000000000000000e+02	1.455186687275107360e-01
1.660000000000000000e+02	1.528054588971093086e-01
1.670000000000000000e+02	1.606706639541022608e-01
1.680000000000000000e+02	1.691762918986475794e-01
1.690000000000000000e+02	1.783925791931942340e-01
1.700000000000000000e+02	1.883992634614870543e-01
1.710000000000000000e+02	1.992870728933690827e-01
1.720000000000000000e+02	2.111594697216690741e-01
1.730000000000000000e+02	2.241346903333467366e-01
1.740000000000000000e+02	2.383481295000593192e-01
1.750000000000000000e+02	2.539551200264558717e-01
1.760000000000000000e+02	2.711341603579346393e-01
1.770000000000000000e+02	2.900906388976040029e-01
1.780000000000000000e+02	3.110610908831553112e-01
1.790000000000000000e+02	3.343179950606688378e-01
1.800000000000000000e+02	3.601750624999016659e-01
1.810000000000000000e+02	3.889928720790959416e-01
1.820000000000000000e+02	4.211845406212939569e-01
1.830000000000000000e+02	4.572208411808040829e-01
1.840000000000000000e+02	4.976337426080728599e-01
1.850000000000000000e+02	5.430166550439879947e-01
1.860000000000000000e+02	5.940186202295096862e-01
1.870000000000000000e+02	6.513281541931859042e-01
1.880000000000000000e+02	7.156403212326956087e-01
1.890000000000000000e+02	7.875978941048539239e-01
1.900000000000000000e+02	8.676944687497631925e-01
1.910000000000000000e+02	9.561252315316756123e-01
1.920000000000000000e+02	1.052572207972245488e+00
1.930000000000000000e+02	1.155919888720349231e+00
1.940000000000000000e+02	1.263920968263903655e+00
1.950000000000000000e+02	1.372877016804604500e+00
1.960000000000000000e+02	1.477463222730577286e+00
1.970000000000000000e+02	1.570885017048273991e+00
1.980000000000000000e+02	1.645549049998173308e+00
1.990000000000000000e+02	1.694290335809331527e+00
2.000000000000000000e+02	1.711912689858023251e+00
2.010000000000000000e+02	1.696510450006826876e+00
2.020000000000000000e+02	1.649993549423851347e+00
2.030000000000000000e+02	1.577562461659896442e+00
2.040000000000000000e+02	1.486386497318769928e+00
2.050000000000000000e+02	1.384063385134757240e+00
2.060000000000000000e+02	1.277392145795914535e+00
2.070000000000000000e+02	1.171702134364968950e+00
2.080000000000000000e+02	1.070696435462398233e+00
2.090000000000000000e+02	9.766271411099477495e-01
2.100000000000000000e+02	8.906146999997569536e-01
2.110000000000000000e+02	8.129822008847602532e-01
2.120000000000000000e+02	7.435397698045478343e-01
2.130000000000000000e+02	6.817993457810077595e-01
2.140000000000000000e+02	6.271239393839245224e-01
2.150000000000000000e+02	5.788245453395388651e-01
2.160000000000000000e+02	5.362190113518615631e-01
2.170000000000000000e+02	4.986649949660218462e-01
2.180000000000000000e+02	4.655761537151033580e-01
2.190000000000000000e+02	4.364279897887148318e-01
2.200000000000000000e+02	4.107576418102326654e-01
2.210000000000000000e+02	3.881603849767737979e-01
2.220000000000000000e+02	3.682845550350579700e-01
2.230000000000000000e+02	3.508259230650736527e-01
2.240000000000000000e+02	3.355221076382419731e-01
2.250000000000000000e+02	3.221473363845547833e-01
2.260000000000000000e+02	3.105077023901143263e-01
2.270000000000000000e+02	3.004369629397529717e-01
2.280000000000000000e+02	2.917928731070581483e-01
2.290000000000000000e+02	2.844540179229504417e-01
2.300000000000000000e+02	2.783170937499240272e-01
2.310000000000000000e+02	2.732945854323526325e-01
2.320000000000000000e+02	2.693127866972848117e-01
2.330000000000000000e+02	2.663101146609594405e-01
2.340000000000000000e+02	2.642356736719624899e-01
2.350000000000000000e+02	2.630480282292460559e-01
2.360000000000000000e+02	2.627141488649373802e-01
2.370000000000000000e+02	2.632084984147843865e-01
2.380000000000000000e+02	2.645122288797525645e-01
2.390000000000000000e+02	2.666124610497005443e-01
2.400000000000000000e+02	2.695016201922341703e-01
2.410000000000000000e+02	2.731768014063232775e-01
2.420000000000000000e+02	2.776391377159664331e-01
2.430000000000000000e+02	2.828931426672805505e-01
2.440000000000000000e+02	2.889459971556714857e-01
2.450000000000000000e+02	2.958067475608949226e-01
2.460000000000000000e+02	3.034853791999970740e-01
2.470000000000000000e+02	3.119917259374289653e-01
2.480000000000000000e+02	3.213341740127754753e-01
2.490000000000000000e+02	3.315181165018223908e-01
2.500000000000000000e+02	3.425441153845218967e-01
2.510000000000000000e+02	3.544057324274462739e-01
2.520000000000000000e+02	3.670869999373412296e-01
2.530000000000000000e+02	3.805595203170790142e-01
2.540000000000000000e+02	3.947792120377229819e-01
2.550000000000000000e+02	4.096827619998881787e-01
2.560000000000000000e+02	4.251839026891141571e-01
2.570000000000000000e+02	4.411697080213439204e-01
2.580000000000000000e+02	4.574971925518381832e-01
2.590000000000000000e+02	4.739905985369620156e-01
2.600000000000000000e+02	4.904398516890553505e-01
2.610000000000000000e+02	5.066007393385149049e-01
2.620000000000000000e+02	5.221973868533057450e-01
2.630000000000000000e+02	5.369275480319621874e-01
2.640000000000000000e+02	5.504710537037923457e-01
2.650000000000000000e+02	5.625014638726787419e-01
2.660000000000000000e+02	5.727005519781616094e-01
2.670000000000000000e+02	5.807747608323253763e-01
2.680000000000000000e+02	5.864722924358732881e-01
2.690000000000000000e+02	5.895991388177038717e-01
2.700000000000000000e+02	5.900322387498390109e-01
2.710000000000000000e+02	5.877281295549878770e-01
2.720000000000000000e+02	5.827259587249479234e-01
2.730000000000000000e+02	5.751444481037502054e-01
2.740000000000000000e+02	5.651732176358682525e-01
2.750000000000000000e+02	5.530596037116394248e-01
2.760000000000000000e+02	5.390926026351255951e-01
2.770000000000000000e+02	5.235857540931020404e-01
2.780000000000000000e+02	5.068606571950148298e-01
2.790000000000000000e+02	4.892324565735261532e-01
2.800000000000000000e+02	4.709981586537176357e-01
2.810000000000000000e+02	4.524281491515834697e-01
2.820000000000000000e+02	4.337608660608429645e-01
2.830000000000000000e+02	4.152002834433520806e-01
2.840000000000000000e+02	3.969156898009597034e-01
2.850000000000000000e+02	3.790431846074051037e-01
2.860000000000000000e+02	3.616883386382319654e-01
2.870000000000000000e+02	3.449295365203268737e-01
2.880000000000000000e+02	3.288216161672803395e-01
2.890000000000000000e+02	3.133995194579943799e-01
2.900000000000000000e+02	2.986817591462599397e-01
2.910000000000000000e+02	2.846735823073993643e-01
2.920000000000000000e+02	2.713697688556906962e-01
2.930000000000000000e+02	2.587570457851711692e-01
2.940000000000000000e+02	2.468161261845863430e-01
2.950000000000000000e+02	2.355233996157058418e-01
2.960000000000000000e+02	2.248523098949946342e-01
2.970000000000000000e+02	2.147744600803453974e-01
2.980000000000000000e+02	2.052604844616315594e-01
2.990000000000000000e+02	1.962807250425946670e-01
3.000000000000000000e+02	1.878057464298802104e-01
3.010000000000000000e+02	1.798067189306903901e-01
3.020000000000000000e+02	1.722556954693622022e-01
3.030000000000000000e+02	1.651258039474420847e-01
3.040000000000000000e+02	1.583913730455015767e-01
3.050000000000000000e+02	1.520280062661642229e-01
3.060000000000000000e+02	1.460126162600631772e-01
3.070000000000000000e+02	1.403234291404695522e-01
3.080000000000000000e+02	1.349399665411904481e-01
3.090000000000000000e+02	1.298430115612271007e-01
3.100000000000000000e+02	1.250145634220970192e-01
3.110000000000000000e+02	1.204377845951004333e-01
3.120000000000000000e+02	1.160969432954593455e-01
3.130000000000000000e+02	1.119773535522307351e-01
3.140000000000000000e+02	1.080653145161670076e-01
3.150000000000000000e+02	1.043480502359437345e-01
3.160000000000000000e+02	1.008136507943748900e-01
3.170000000000000000e+02	9.745101543214902684e-02
3.180000000000000000e+02	9.424979808227697264e-02
3.190000000000000000e+02	9.120035558163888667e-02
3.200000000000000000e+02	8.829369870687243937e-02
3.210000000000000000e+02	8.552144609238110373e-02
3.220000000000000000e+02	8.287578102207103503e-02
3.230000000000000000e+02	8.034941103843487586e-02
3.240000000000000000e+02	7.793553027871920336e-02
3.250000000000000000e+02	7.562778442491524533e-02
3.260000000000000000e+02	7.342023813964138057e-02
3.270000000000000000e+02	7.130734485163452152e-02
3.280000000000000000e+02	6.928391875095295249e-02
3.290000000000000000e+02	6.734510885388383938e-02
3.300000000000000000e+02	6.548637499998212486e-02
3.310000000000000000e+02	6.370346564790069221e-02
3.320000000000000000e+02	6.199239734213089076e-02
3.330000000000000000e+02	6.034943572902125297e-02
3.340000000000000000e+02	5.877107800714672509e-02
3.350000000000000000e+02	5.725403670401445905e-02
3.360000000000000000e+02	5.579522467802897762e-02
3.370000000000000000e+02	5.439174125146735428e-02
3.380000000000000000e+02	5.304085938683836265e-02
3.390000000000000000e+02	5.174001382535380056e-02
3.400000000000000000e+02	5.048679011228389413e-02
3.410000000000000000e+02	4.927891443967696156e-02
3.420000000000000000e+02	4.811424424228508828e-02
3.430000000000000000e+02	4.699075948755058324e-02
3.440000000000000000e+02	4.590655460517772263e-02
3.450000000000000000e+02	4.485983100615043712e-02
3.460000000000000000e+02	4.384889014507348942e-02
3.470000000000000000e+02	4.287212708342654638e-02
3.480000000000000000e+02	4.192802451474645503e-02
3.490000000000000000e+02	4.101514721590858448e-02
3.500000000000000000e+02	4.013213689158196679e-02
3.510000000000000000e+02	3.927770738160304281e-02
3.520000000000000000e+02	3.845064020346489891e-02
3.530000000000000000e+02	3.764978040437022555e-02
3.540000000000000000e+02	3.687403269936179867e-02
3.550000000000000000e+02	3.612235787393900527e-02
3.560000000000000000e+02	3.539376943130592007e-02
3.570000000000000000e+02	3.468733046598937442e-02
3.580000000000000000e+02	3.400215074702526291e-02
3.590000000000000000e+02	3.333738399524963092e-02
3.600000000000000000e+02	3.269222534045800044e-02
3.610000000000000000e+02	3.206590894532104080e-02
3.620000000000000000e+02	3.145770578397581729e-02
3.630000000000000000e+02	3.086692156415766011e-02
3.640000000000000000e+02	3.029289478260505097e-02
3.650000000000000000e+02	2.973499490426576020e-02
3.660000000000000000e+02	2.919262065656275107e-02
3.670000000000000000e+02	2.866519843064885623e-02
3.680000000000000000e+02	2.815218078219504025e-02
3.690000000000000000e+02	2.765304502482223564e-02
3.700000000000000000e+02	2.716729190980691003e-02
3.710000000000000000e+02	2.669444438616788012e-02
3.720000000000000000e+02	2.623404643568151562e-02
3.730000000000000000e+02	2.578566197777647229e-02
3.740000000000000000e+02	2.534887383963138618e-02
3.750000000000000000e+02	2.492328278714113499e-02
3.760000000000000000e+02	2.450850661273329054e-02
3.770000000000000000e+02	2.410417927630673085e-02
3.780000000000000000e+02	2.370995009583275193e-02
3.790000000000000000e+02	2.332548298440628720e-02
3.800000000000000000e+02	2.295045573076296558e-02
3.810000000000000000e+02	2.258455932048840376e-02
3.820000000000000000e+02	2.222749729534083743e-02
3.830000000000000000e+02	2.187898514828792371e-02
3.840000000000000000e+02	2.153874975202466763e-02
3.850000000000000000e+02	2.120652881889342756e-02
3.860000000000000000e+02	2.088207039026896902e-02
3.870000000000000000e+02	2.056513235360334438e-02
3.880000000000000000e+02	2.025548198544730935e-02
3.890000000000000000e+02	1.995289551887810542e-02
3.900000000000000000e+02	1.965715773386800952e-02
3.910000000000000000e+02	1.936806156922541572e-02
3.920000000000000000e+02	1.908540775483025947e-02
3.930000000000000000e+02	1.880900446296931636e-02
3.940000000000000000e+02	1.853866697765461577e-02
3.950000000000000000e+02	1.827421738088040939e-02
3.960000000000000000e+02	1.801548425484133728e-02
3.970000000000000000e+02	1.776230239919668330e-02
3.980000000000000000e+02	1.751451256252387415e-02
3.990000000000000000e+02	1.727196118715829468e-02
4.000000000000000000e+02	1.703450016666682026e-02
4.010000000000000000e+02	1.680198661524947429e-02
4.020000000000000000e+02	1.657428264840708418e-02
4.030000000000000000e+02	1.635125517425381481e-02
4.040000000000000000e+02	1.613277569489121252e-02
4.050000000000000000e+02	1.591872011729595499e-02
4.060000000000000000e+02	1.570896857320667681e-02
4.070000000000000000e+02	1.550340524752591952e-02
4.080000000000000000e+02	1.530191821478239442e-02
4.090000000000000000e+02	1.510439928322555858e-02
4.100000000000000000e+02	1.491074384614977585e-02
4.110000000000000000e+02	1.472085074006903443e-02
4.120000000000000000e+02	1.453462210938511606e-02
4.130000000000000000e+02	1.435196327721296843e-02
4.140000000000000000e+02	1.417278262204625487e-02
4.150000000000000000e+02	1.399699145996427530e-02
4.160000000000000000e+02	1.382450393209849575e-02
4.170000000000000000e+02	1.365523689709268254e-02
4.180000000000000000e+02	1.348910982830587961e-02
4.190000000000000000e+02	1.332604471552121042e-02
4.200000000000000000e+02	1.316596597093684477e-02
4.210000000000000000e+02	1.300880033922778914e-02
4.220000000000000000e+02	1.285447681147869163e-02
4.230000000000000000e+02	1.270292654279891326e-02
4.240000000000000000e+02	1.255408277344127917e-02
4.250000000000000000e+02	1.240788075325552527e-02
4.260000000000000000e+02	1.226425766931670339e-02
4.270000000000000000e+02	1.212315257657714876e-02
4.280000000000000000e+02	1.198450633139879797e-02
4.290000000000000000e+02	1.184826152783009443e-02
4.300000000000000000e+02	1.171436243649897832e-02
4.310000000000000000e+02	1.158275494600005846e-02
4.320000000000000000e+02	1.145338650666041791e-02
4.330000000000000000e+02	1.132620607657456452e-02
4.340000000000000000e+02	1.120116406980452110e-02
4.350000000000000000e+02	1.107821230664649513e-02
4.360000000000000000e+02	1.095730396587046851e-02
4.370000000000000000e+02	1.083839353884388790e-02
4.380000000000000000e+02	1.072143678545500051e-02
4.390000000000000000e+02	1.060639069175567557e-02
4.400000000000000000e+02	1.049321342924752418e-02
4.410000000000000000e+02	1.038186431573884412e-02
4.420000000000000000e+02	1.027230377770359422e-02
4.430000000000000000e+02	1.016449331407686535e-02
4.440000000000000000e+02	1.005839546142454043e-02
4.450000000000000000e+02	9.953973760427892170e-03
4.460000000000000000e+02	9.851192723626675876e-03
4.470000000000000000e+02	9.750017804366992863e-03
4.480000000000000000e+02	9.650415366902783190e-03
4.490000000000000000e+02	9.552352657602189781e-03
4.500000000000000000e+02	9.455797777212410909e-03
4.510000000000000000e+02	9.360719654138737952e-03
4.520000000000000000e+02	9.267088018695633297e-03
4.530000000000000000e+02	9.174873378289634049e-03
4.540000000000000000e+02	9.084046993495688629e-03
4.550000000000000000e+02	8.994580854990372187e-03
4.560000000000000000e+02	8.906447661307036537e-03
4.570000000000000000e+02	8.819620797379584473e-03
4.580000000000000000e+02	8.734074313843044959e-03
4.590000000000000000e+02	8.649782907060584586e-03
4.600000000000000000e+02	8.566721899847928173e-03
4.610000000000000000e+02	8.484867222867478048e-03
4.620000000000000000e+02	8.404195396665634088e-03
4.630000000000000000e+02	8.324683514328037881e-03
4.640000000000000000e+02	8.246309224728477424e-03
4.650000000000000000e+02	8.169050716348406557e-03
4.660000000000000000e+02	8.092886701644855588e-03
4.670000000000000000e+02	8.017796401945635407e-03
4.680000000000000000e+02	7.943759532851547497e-03
4.690000000000000000e+02	7.870756290126235122e-03
4.700000000000000000e+02	7.798767336055106338e-03
4.710000000000000000e+02	7.727773786255587828e-03
4.720000000000000000e+02	7.657757196921676293e-03
4.730000000000000000e+02	7.588699552486522643e-03
4.740000000000000000e+02	7.520583253687425189e-03
4.750000000000000000e+02	7.453391106018279408e-03
4.760000000000000000e+02	7.387106308555158908e-03
4.770000000000000000e+02	7.321712443141285137e-03
4.780000000000000000e+02	7.257193463918219269e-03
4.790000000000000000e+02	7.193533687190638813e-03
4.800000000000000000e+02	7.130717781612596652e-03
4.810000000000000000e+02	7.068730758683624237e-03
4.820000000000000000e+02	7.007557963543547229e-03
4.830000000000000000e+02	6.947185066055300805e-03
4.840000000000000000e+02	6.887598052165475049e-03
4.850000000000000000e+02	6.828783215532734617e-03
4.860000000000000000e+02	6.770727149414639337e-03
4.870000000000000000e+02	6.713416738803781869e-03
4.880000000000000000e+02	6.656839152804483808e-03
4.890000000000000000e+02	6.600981837241701004e-03
4.900000000000000000e+02	6.545832507494027397e-03
4.910000000000000000e+02	6.491379141543085658e-03
4.920000000000000000e+02	6.437609973231834919e-03
4.930000000000000000e+02	6.384513485724634639e-03
4.940000000000000000e+02	6.332078405162204666e-03
4.950000000000000000e+02	6.280293694504804521e-03
4.960000000000000000e+02	6.229148547557333999e-03
4.970000000000000000e+02	6.178632383170156936e-03
4.980000000000000000e+02	6.128734839609801220e-03
4.990000000000000000e+02	6.079445769093834787e-03
5.000000000000000000e+02	6.030755232484459258e-03
5.010000000000000000e+02	5.982653494135573707e-03
5.020000000000000000e+02	5.935131016888231005e-03
5.030000000000000000e+02	5.888178457209618244e-03
5.040000000000000000e+02	5.841786660470869690e-03
5.050000000000000000e+02	5.795946656359175081e-03
5.060000000000000000e+02	5.750649654419842140e-03
5.070000000000000000e+02	5.705887039724097040e-03
5.080000000000000000e+02	5.661650368658597415e-03
5.090000000000000000e+02	5.617931364832722679e-03
5.100000000000000000e+02	5.574721915099918948e-03
5.110000000000000000e+02	5.532014065689452170e-03
5.120000000000000000e+02	5.489800018445065329e-03
5.130000000000000000e+02	5.448072127167191692e-03
5.140000000000000000e+02	5.406822894055445493e-03
5.150000000000000000e+02	5.366044966248276205e-03
5.160000000000000000e+02	5.325731132456726358e-03
5.170000000000000000e+02	5.285874319689414999e-03
5.180000000000000000e+02	5.246467590065877554e-03
5.190000000000000000e+02	5.207504137715581079e-03
5.200000000000000000e+02	5.168977285759960780e-03
5.210000000000000000e+02	5.130880483374946829e-03
5.220000000000000000e+02	5.093207302931541600e-03
5.230000000000000000e+02	5.055951437212063797e-03
5.240000000000000000e+02	5.019106696699780941e-03
5.250000000000000000e+02	4.982667006939723621e-03
5.260000000000000000e+02	4.946626405968545213e-03
5.270000000000000000e+02	4.910979041811361877e-03
5.280000000000000000e+02	4.875719170043590033e-03
5.290000000000000000e+02	4.840841151415828901e-03
5.300000000000000000e+02	4.806339449539972705e-03
5.310000000000000000e+02	4.772208628634689448e-03
5.320000000000000000e+02	4.738443351328590521e-03
5.330000000000000000e+02	4.705038376519352951e-03
5.340000000000000000e+02	4.671988557287201811e-03
5.350000000000000000e+02	4.639288838861152509e-03
5.360000000000000000e+02	4.606934256636515887e-03
5.370000000000000000e+02	4.574919934242154332e-03
5.380000000000000000e+02	4.543241081656108904e-03
5.390000000000000000e+02	4.511892993368167223e-03
5.400000000000000000e+02	4.480871046588076265e-03
5.410000000000000000e+02	4.450170699498079072e-03
5.420000000000000000e+02	4.419787489548535064e-03
5.430000000000000000e+02	4.389717031795410500e-03
5.440000000000000000e+02	4.359955017278462075e-03
5.450000000000000000e+02	4.330497211438971358e-03
5.460000000000000000e+02	4.301339452575937174e-03
5.470000000000000000e+02	4.272477650339652142e-03
5.480000000000000000e+02	4.243907784261639025e-03
5.490000000000000000e+02	4.215625902319922527e-03
5.500000000000000000e+02	4.187628119538691109e-03
5.510000000000000000e+02	4.159910616621399944e-03
5.520000000000000000e+02	4.132469638616386061e-03
5.530000000000000000e+02	4.105301493614141317e-03
5.540000000000000000e+02	4.078402551475358503e-03
5.550000000000000000e+02	4.051769242588937857e-03
5.560000000000000000e+02	4.025398056659138663e-03
5.570000000000000000e+02	3.999285541521101391e-03
5.580000000000000000e+02	3.973428301983970151e-03
5.590000000000000000e+02	3.947822998700899894e-03
5.600000000000000000e+02	3.922466347065213695e-03
5.610000000000000000e+02	3.897355116132034027e-03
5.620000000000000000e+02	3.872486127564711902e-03
5.630000000000000000e+02	3.847856254605398589e-03
5.640000000000000000e+02	3.823462421069130212e-03
5.650000000000000000e+02	3.799301600360817203e-03
5.660000000000000000e+02	3.775370814514530590e-03
5.670000000000000000e+02	3.751667133254522196e-03
5.680000000000000000e+02	3.728187673077403702e-03
5.690000000000000000e+02	3.704929596354947230e-03
5.700000000000000000e+02	3.681890110456975326e-03
5.710000000000000000e+02	3.659066466893831637e-03
5.720000000000000000e+02	3.636455960477918796e-03
5.730000000000000000e+02	3.614055928503839919e-03
5.740000000000000000e+02	3.591863749946654950e-03
5.750000000000000000e+02	3.569876844677798665e-03
5.760000000000000000e+02	3.548092672698223600e-03
5.770000000000000000e+02	3.526508733388320806e-03
5.780000000000000000e+02	3.505122564774220285e-03
5.790000000000000000e+02	3.483931742810034409e-03
5.800000000000000000e+02	3.462933880675677853e-03
5.810000000000000000e+02	3.442126628089852043e-03
5.820000000000000000e+02	3.421507670637839813e-03
5.830000000000000000e+02	3.401074729113735557e-03
5.840000000000000000e+02	3.380825558876751798e-03
5.850000000000000000e+02	3.360757949221273005e-03
5.860000000000000000e+02	3.340869722760307983e-03
5.870000000000000000e+02	3.321158734822019908e-03
5.880000000000000000e+02	3.301622872859014818e-03
5.890000000000000000e+02	3.282260055870089323e-03
5.900000000000000000e+02	3.263068233834120514e-03
5.910000000000000000e+02	3.244045387155824415e-03
5.920000000000000000e+02	3.225189526123083735e-03
5.930000000000000000e+02	3.206498690375582557e-03
5.940000000000000000e+02	3.187970948384465184e-03
5.950000000000000000e+02	3.169604396942768063e-03
5.960000000000000000e+02	3.151397160666368023e-03
5.970000000000000000e+02	3.133347391505191416e-03
5.980000000000000000e+02	3.115453268264451250e-03
5.990000000000000000e+02	3.097712996135680314e-03
6.000000000000000000e+02	3.080124806237312211e-03
6.010000000000000000e+02	3.062686955164615598e-03
6.020000000000000000e+02	3.045397724548741351e-03
6.030000000000000000e+02	3.028255420624679714e-03
6.040000000000000000e+02	3.011258373807928351e-03
6.050000000000000000e+02	2.994404938279658385e-03
6.060000000000000000e+02	2.977693491580190189e-03
6.070000000000000000e+02	2.961122434210593322e-03
6.080000000000000000e+02	2.944690189242211119e-03
6.090000000000000000e+02	2.928395201933945563e-03
6.100000000000000000e+02	2.912235939357112492e-03
6.110000000000000000e+02	2.896210890027709275e-03
6.120000000000000000e+02	2.880318563545915429e-03
6.130000000000000000e+02	2.864557490242669591e-03
6.140000000000000000e+02	2.848926220833164144e-03
6.150000000000000000e+02	2.833423326077103531e-03
6.160000000000000000e+02	2.818047396445567520e-03
6.170000000000000000e+02	2.802797041794348031e-03
6.180000000000000000e+02	2.787670891043597318e-03
6.190000000000000000e+02	2.772667591863663041e-03
6.200000000000000000e+02	2.757785810366966250e-03
6.210000000000000000e+02	2.743024230805789134e-03
6.220000000000000000e+02	2.728381555275850249e-03
6.230000000000000000e+02	2.713856503425527995e-03
6.240000000000000000e+02	2.699447812170621772e-03
6.250000000000000000e+02	2.685154235414523305e-03
6.260000000000000000e+02	2.670974543773682770e-03
6.270000000000000000e+02	2.656907524308253516e-03
6.280000000000000000e+02	2.642951980257809107e-03
6.290000000000000000e+02	2.629106730782012138e-03
6.300000000000000000e+02	2.615370610706146785e-03
6.310000000000000000e+02	2.601742470271390176e-03
6.320000000000000000e+02	2.588221174889736732e-03
6.330000000000000000e+02	2.574805604903471819e-03
6.340000000000000000e+02	2.561494655349096268e-03
6.350000000000000000e+02	2.548287235725606344e-03
6.360000000000000000e+02	2.535182269767048517e-03
6.370000000000000000e+02	2.522178695219240169e-03
6.380000000000000000e+02	2.509275463620587281e-03
6.390000000000000000e+02	2.496471540086899789e-03
6.400000000000000000e+02	2.483765903100129159e-03
6.410000000000000000e+02	2.471157544300946630e-03
6.420000000000000000e+02	2.458645468285071498e-03
6.430000000000000000e+02	2.446228692403289596e-03
6.440000000000000000e+02	2.433906246565069147e-03
6.450000000000000000e+02	2.421677173045708956e-03
6.460000000000000000e+02	2.409540526296947809e-03
6.470000000000000000e+02	2.397495372760953102e-03
6.480000000000000000e+02	2.385540790687632785e-03
6.490000000000000000e+02	2.373675869955195559e-03
6.500000000000000000e+02	2.361899711893897767e-03
6.510000000000000000e+02	2.350211429112899347e-03
6.520000000000000000e+02	2.338610145330191539e-03
6.530000000000000000e+02	2.327094995205503548e-03
6.540000000000000000e+02	2.315665124176156074e-03
6.550000000000000000e+02	2.304319688295779298e-03
6.560000000000000000e+02	2.293057854075858035e-03
6.570000000000000000e+02	2.281878798330031193e-03
6.580000000000000000e+02	2.270781708021101311e-03
6.590000000000000000e+02	2.259765780110696044e-03
6.600000000000000000e+02	2.248830221411529575e-03
6.610000000000000000e+02	2.237974248442211895e-03
6.620000000000000000e+02	2.227197087284555656e-03
6.630000000000000000e+02	2.216497973443338088e-03
6.640000000000000000e+02	2.205876151708455538e-03
6.650000000000000000e+02	2.195330876019436789e-03
6.660000000000000000e+02	2.184861409332267482e-03
6.670000000000000000e+02	2.174467023488470957e-03
6.680000000000000000e+02	2.164146999086410863e-03
6.690000000000000000e+02	2.153900625354775600e-03
6.700000000000000000e+02	2.143727200028189110e-03
6.710000000000000000e+02	2.133626029224918071e-03
6.720000000000000000e+02	2.123596427326633011e-03
6.730000000000000000e+02	2.113637716860181266e-03
6.740000000000000000e+02	2.103749228381333620e-03
6.750000000000000000e+02	2.093930300360471661e-03
6.760000000000000000e+02	2.084180279070172066e-03
6.770000000000000000e+02	2.074498518474656578e-03
6.780000000000000000e+02	2.064884380121069941e-03
6.790000000000000000e+02	2.055337233032553286e-03
6.800000000000000000e+02	2.045856453603076951e-03
6.810000000000000000e+02	2.036441425493999789e-03
6.820000000000000000e+02	2.027091539532324595e-03
6.830000000000000000e+02	2.017806193610617582e-03
6.840000000000000000e+02	2.008584792588554140e-03
6.850000000000000000e+02	1.999426748196075736e-03
6.860000000000000000e+02	1.990331478938110223e-03
6.870000000000000000e+02	1.981298410000836927e-03
6.880000000000000000e+02	1.972326973159468314e-03
6.890000000000000000e+02	1.963416606687515276e-03
6.900000000000000000e+02	1.954566755267512623e-03
6.910000000000000000e+02	1.945776869903173556e-03
6.920000000000000000e+02	1.937046407832954684e-03
6.930000000000000000e+02	1.928374832444996675e-03
6.940000000000000000e+02	1.919761613193420166e-03
6.950000000000000000e+02	1.911206225515955882e-03
6.960000000000000000e+02	1.902708150752873426e-03
6.970000000000000000e+02	1.894266876067201124e-03
6.980000000000000000e+02	1.885881894366195095e-03
6.990000000000000000e+02	1.877552704224054068e-03
7.000000000000000000e+02	1.869278809805842434e-03
7.010000000000000000e+02	1.861059720792606351e-03
7.020000000000000000e+02	1.852894952307663178e-03
7.030000000000000000e+02	1.844784024844037555e-03
7.040000000000000000e+02	1.836726464193031132e-03
7.050000000000000000e+02	1.828721801373896661e-03
7.060000000000000000e+02	1.820769572564605830e-03
7.070000000000000000e+02	1.812869319033686344e-03
7.080000000000000000e+02	1.805020587073109589e-03
7.090000000000000000e+02	1.797222927932211117e-03
7.100000000000000000e+02	1.789475897752627453e-03
7.110000000000000000e+02	1.781779057504230155e-03
7.120000000000000000e+02	1.774131972922035443e-03
7.130000000000000000e+02	1.766534214444079624e-03
7.140000000000000000e+02	1.758985357150241909e-03
7.150000000000000000e+02	1.751484980701989219e-03
7.160000000000000000e+02	1.744032669283043444e-03
7.170000000000000000e+02	1.736628011540936219e-03
7.180000000000000000e+02	1.729270600529454055e-03
7.190000000000000000e+02	1.721960033651943455e-03
7.200000000000000000e+02	1.714695912605470381e-03
7.210000000000000000e+02	1.707477843325817595e-03
7.220000000000000000e+02	1.700305435933301872e-03
7.230000000000000000e+02	1.693178304679401544e-03
7.240000000000000000e+02	1.686096067894178986e-03
7.250000000000000000e+02	1.679058347934483508e-03
7.260000000000000000e+02	1.672064771132920555e-03
7.270000000000000000e+02	1.665114967747580946e-03
7.280000000000000000e+02	1.658208571912505409e-03
7.290000000000000000e+02	1.651345221588885288e-03
7.300000000000000000e+02	1.644524558516975580e-03
7.310000000000000000e+02	1.637746228168714862e-03
7.320000000000000000e+02	1.631009879701041066e-03
7.330000000000000000e+02	1.624315165909885530e-03
7.340000000000000000e+02	1.617661743184839462e-03
7.350000000000000000e+02	1.611049271464478532e-03
7.360000000000000000e+02	1.604477414192337749e-03
7.370000000000000000e+02	1.597945838273521482e-03
7.380000000000000000e+02	1.591454214031942519e-03
7.390000000000000000e+02	1.585002215168177398e-03
7.400000000000000000e+02	1.578589518717925634e-03
7.410000000000000000e+02	1.572215805011070245e-03
7.420000000000000000e+02	1.565880757631320924e-03
7.430000000000000000e+02	1.559584063376435754e-03
7.440000000000000000e+02	1.553325412219011678e-03
7.450000000000000000e+02	1.547104497267830095e-03
7.460000000000000000e+02	1.540921014729757562e-03
7.470000000000000000e+02	1.534774663872179703e-03
7.480000000000000000e+02	1.528665146985972454e-03
7.490000000000000000e+02	1.522592169348993942e-03
7.500000000000000000e+02	1.516555439190090922e-03
7.510000000000000000e+02	1.510554667653611974e-03
7.520000000000000000e+02	1.504589568764419646e-03
7.530000000000000000e+02	1.498659859393389627e-03
7.540000000000000000e+02	1.492765259223397586e-03
7.550000000000000000e+02	1.486905490715774393e-03
7.560000000000000000e+02	1.481080279077234049e-03
7.570000000000000000e+02	1.475289352227256981e-03
7.580000000000000000e+02	1.469532440765927402e-03
7.590000000000000000e+02	1.463809277942217145e-03
7.600000000000000000e+02	1.458119599622704045e-03
7.610000000000000000e+02	1.452463144260725302e-03
7.620000000000000000e+02	1.446839652865952383e-03
7.630000000000000000e+02	1.441248868974385079e-03
7.640000000000000000e+02	1.435690538618756250e-03
7.650000000000000000e+02	1.430164410299341856e-03
7.660000000000000000e+02	1.424670234955168011e-03
7.670000000000000000e+02	1.419207765935612047e-03
7.680000000000000000e+02	1.413776758972387377e-03
7.690000000000000000e+02	1.408376972151910650e-03
7.700000000000000000e+02	1.403008165888041661e-03
7.710000000000000000e+02	1.397670102895192746e-03
7.720000000000000000e+02	1.392362548161799008e-03
7.730000000000000000e+02	1.387085268924147198e-03
7.740000000000000000e+02	1.381838034640556949e-03
7.750000000000000000e+02	1.376620616965904421e-03
7.760000000000000000e+02	1.371432789726492654e-03
7.770000000000000000e+02	1.366274328895251966e-03
7.780000000000000000e+02	1.361145012567273414e-03
7.790000000000000000e+02	1.356044620935669678e-03
7.800000000000000000e+02	1.350972936267752110e-03
7.810000000000000000e+02	1.345929742881526742e-03
7.820000000000000000e+02	1.340914827122501041e-03
7.830000000000000000e+02	1.335927977340794874e-03
7.840000000000000000e+02	1.330968983868555068e-03
7.850000000000000000e+02	1.326037638997666157e-03
7.860000000000000000e+02	1.321133736957753662e-03
7.870000000000000000e+02	1.316257073894475322e-03
7.880000000000000000e+02	1.311407447848097693e-03
7.890000000000000000e+02	1.306584658732350092e-03
7.900000000000000000e+02	1.301788508313556298e-03
7.910000000000000000e+02	1.297018800190034285e-03
7.920000000000000000e+02	1.292275339771768294e-03
7.930000000000000000e+02	1.287557934260340035e-03
7.940000000000000000e+02	1.282866392629120316e-03
7.950000000000000000e+02	1.278200525603717186e-03
7.960000000000000000e+02	1.273560145642675407e-03
7.970000000000000000e+02	1.268945066918424200e-03
7.980000000000000000e+02	1.264355105298469589e-03
7.990000000000000000e+02	1.259790078326826577e-03
8.000000000000000000e+02	1.255249805205690483e-03
8.010000000000000000e+02	1.250734106777340749e-03
8.020000000000000000e+02	1.246242805506276100e-03
8.030000000000000000e+02	1.241775725461576529e-03
8.040000000000000000e+02	1.237332692299488411e-03
8.050000000000000000e+02	1.232913533246231437e-03
8.060000000000000000e+02	1.228518077081023263e-03
8.070000000000000000e+02	1.224146154119315575e-03
8.080000000000000000e+02	1.219797596196245480e-03
8.090000000000000000e+02	1.215472236650290720e-03
8.100000000000000000e+02	1.211169910307133930e-03
8.110000000000000000e+02	1.206890453463726597e-03
8.120000000000000000e+02	1.202633703872552735e-03
8.130000000000000000e+02	1.198399500726089447e-03
8.140000000000000000e+02	1.194187684641461128e-03
8.150000000000000000e+02	1.189998097645284707e-03
8.160000000000000000e+02	1.185830583158701580e-03
8.170000000000000000e+02	1.181684985982597771e-03
8.180000000000000000e+02	1.177561152283004061e-03
8.190000000000000000e+02	1.173458929576677405e-03
8.200000000000000000e+02	1.169378166716863402e-03
8.210000000000000000e+02	1.165318713879226389e-03
8.220000000000000000e+02	1.161280422547960592e-03
8.230000000000000000e+02	1.157263145502066297e-03
8.240000000000000000e+02	1.153266736801796021e-03
8.250000000000000000e+02	1.149291051775265917e-03
8.260000000000000000e+02	1.145335947005230240e-03
8.270000000000000000e+02	1.141401280316016497e-03
8.280000000000000000e+02	1.137486910760621920e-03
8.290000000000000000e+02	1.133592698607961517e-03
8.300000000000000000e+02	1.129718505330276146e-03
8.310000000000000000e+02	1.125864193590688260e-03
8.320000000000000000e+02	1.122029627230910955e-03
8.330000000000000000e+02	1.118214671259103610e-03
8.340000000000000000e+02	1.114419191837873451e-03
8.350000000000000000e+02	1.110643056272421535e-03
8.360000000000000000e+02	1.106886132998831634e-03
8.370000000000000000e+02	1.103148291572497242e-03
8.380000000000000000e+02	1.099429402656689099e-03
8.390000000000000000e+02	1.095729338011256502e-03
8.400000000000000000e+02	1.092047970481466092e-03
8.410000000000000000e+02	1.088385173986969887e-03
8.420000000000000000e+02	1.084740823510907089e-03
8.430000000000000000e+02	1.081114795089133411e-03
8.440000000000000000e+02	1.077506965799577892e-03
8.450000000000000000e+02	1.073917213751725492e-03
8.460000000000000000e+02	1.070345418076222620e-03
8.470000000000000000e+02	1.066791458914607580e-03
8.480000000000000000e+02	1.063255217409158314e-03
8.490000000000000000e+02	1.059736575692861145e-03
8.500000000000000000e+02	1.056235416879495537e-03
8.510000000000000000e+02	1.052751625053837022e-03
8.520000000000000000e+02	1.049285085261971156e-03
8.530000000000000000e+02	1.045835683501722619e-03
8.540000000000000000e+02	1.042403306713194245e-03
8.550000000000000000e+02	1.038987842769417301e-03
8.560000000000000000e+02	1.035589180467108008e-03
8.570000000000000000e+02	1.032207209517532276e-03
8.580000000000000000e+02	1.028841820537475813e-03
8.590000000000000000e+02	1.025492905040317889e-03
8.600000000000000000e+02	1.022160355427208104e-03
8.610000000000000000e+02	1.018844064978343972e-03
8.620000000000000000e+02	1.015543927844350007e-03
8.630000000000000000e+02	1.012259839037752632e-03
8.640000000000000000e+02	1.008991694424555717e-03
8.650000000000000000e+02	1.005739390715910215e-03
8.660000000000000000e+02	1.002502825459879003e-03
8.670000000000000000e+02	9.992818970332966854e-04
8.680000000000000000e+02	9.960765046337189624e-04
8.690000000000000000e+02	9.928865482714671880e-04
8.700000000000000000e+02	9.897119287617585793e-04
8.710000000000000000e+02	9.865525477169294517e-04
8.720000000000000000e+02	9.834083075387423708e-04
8.730000000000000000e+02	9.802791114107839432e-04
8.740000000000000000e+02	9.771648632909443570e-04
8.750000000000000000e+02	9.740654679039830073e-04
8.760000000000000000e+02	9.709808307341782560e-04
8.770000000000000000e+02	9.679108580180575310e-04
8.780000000000000000e+02	9.648554567372098247e-04
8.790000000000000000e+02	9.618145346111787487e-04
8.800000000000000000e+02	9.587880000904328926e-04
8.810000000000000000e+02	9.557757623494168462e-04
8.820000000000000000e+02	9.527777312796760576e-04
8.830000000000000000e+02	9.497938174830622459e-04
8.840000000000000000e+02	9.468239322650090712e-04
8.850000000000000000e+02	9.438679876278865174e-04
8.860000000000000000e+02	9.409258962644247723e-04
8.870000000000000000e+02	9.379975715512136767e-04
8.880000000000000000e+02	9.350829275422715622e-04
8.890000000000000000e+02	9.321818789626851046e-04
8.900000000000000000e+02	9.292943412023194332e-04
8.910000000000000000e+02	9.264202303095965454e-04
8.920000000000000000e+02	9.235594629853421337e-04
8.930000000000000000e+02	9.207119565766983330e-04
8.940000000000000000e+02	9.178776290711043381e-04
8.950000000000000000e+02	9.150563990903415323e-04
8.960000000000000000e+02	9.122481858846430165e-04
8.970000000000000000e+02	9.094529093268680824e-04
8.980000000000000000e+02	9.066704899067383775e-04
8.990000000000000000e+02	9.039008487251366276e-04
9.000000000000000000e+02	9.011439074884686770e-04
